# cos_beta, density. dx=0.001, size=550
0.000000000000000000e+00 3.744786436985342082e+00
1.000000000000000021e-03 3.694949280419358661e+00
2.000000000000000042e-03 3.554041890526535408e+00
3.000000000000000062e-03 3.345042867284337529e+00
4.000000000000000083e-03 3.098123402398666126e+00
5.000000000000000104e-03 2.842303325767227662e+00
6.000000000000000125e-03 2.599234260298389554e+00
7.000000000000000146e-03 2.380918229315764467e+00
8.000000000000000167e-03 2.191154882304509499e+00
9.000000000000001055e-03 2.029050199880599870e+00
1.000000000000000021e-02 1.892533627042498834e+00
1.099999999999999936e-02 1.780403601146897552e+00
1.200000000000000025e-02 1.692473210337788414e+00
1.300000000000000114e-02 1.628367089693433911e+00
1.400000000000000029e-02 1.586019840405455072e+00
1.499999999999999944e-02 1.560825881209737309e+00
1.600000000000000033e-02 1.545882471697662908e+00
1.700000000000000122e-02 1.533198737330375927e+00
1.800000000000000211e-02 1.515378173113214100e+00
1.899999999999999953e-02 1.487181332175294024e+00
2.000000000000000042e-02 1.446471541802983651e+00
2.100000000000000130e-02 1.394275825990299866e+00
2.199999999999999872e-02 1.334014992030562619e+00
2.299999999999999961e-02 1.270271795840659967e+00
2.400000000000000050e-02 1.207602991689249894e+00
2.500000000000000139e-02 1.149753259840628372e+00
2.600000000000000228e-02 1.099300986840638927e+00
2.699999999999999969e-02 1.057525598733493943e+00
2.800000000000000058e-02 1.024322896022487495e+00
2.900000000000000147e-02 9.982258551051039763e-01
2.999999999999999889e-02 9.767367817918585216e-01
3.099999999999999978e-02 9.570546718692659605e-01
3.200000000000000067e-02 9.369814974255311624e-01
3.300000000000000155e-02 9.155879973091054502e-01
3.400000000000000244e-02 8.933029413296641463e-01
3.500000000000000333e-02 8.714043537825214569e-01
3.600000000000000422e-02 8.512135019912884237e-01
3.699999999999999817e-02 8.334229356902236319e-01
3.799999999999999906e-02 8.178742513787229385e-01
3.899999999999999994e-02 8.038270929789771424e-01
4.000000000000000083e-02 7.904885385170492551e-01
4.100000000000000172e-02 7.774546693184645196e-01
4.200000000000000261e-02 7.648209997208559319e-01
4.300000000000000350e-02 7.529742536715569035e-01
4.399999999999999745e-02 7.423031586023950412e-01
4.499999999999999833e-02 7.330922306942166955e-01
4.599999999999999922e-02 7.256717703957611398e-01
4.700000000000000011e-02 7.206474853863202856e-01
4.800000000000000100e-02 7.189333183830248775e-01
4.900000000000000189e-02 7.214454843001769646e-01
5.000000000000000278e-02 7.285746638064275471e-01
5.100000000000000366e-02 7.397323041177888969e-01
5.200000000000000455e-02 7.532409701484609199e-01
5.299999999999999850e-02 7.666516255795023937e-01
5.399999999999999939e-02 7.773695900931146818e-01
5.500000000000000028e-02 7.833651872845766029e-01
5.600000000000000117e-02 7.837369886741809566e-01
5.700000000000000205e-02 7.789366581738532691e-01
5.800000000000000294e-02 7.705466089934277507e-01
5.900000000000000383e-02 7.606553600904299994e-01
5.999999999999999778e-02 7.510754197067566196e-01
6.099999999999999867e-02 7.427665239994732937e-01
6.199999999999999956e-02 7.357312955744464977e-01
6.300000000000000044e-02 7.293635465945434992e-01
6.400000000000000133e-02 7.229541780789854322e-01
6.500000000000000222e-02 7.160110496875944364e-01
6.600000000000000311e-02 7.082557892674674616e-01
6.700000000000000400e-02 6.994391776006030348e-01
6.800000000000000488e-02 6.892425753376132391e-01
6.900000000000000577e-02 6.774285110121801567e-01
7.000000000000000666e-02 6.641777430091296841e-01
7.100000000000000755e-02 6.503821118797173950e-01
7.200000000000000844e-02 6.376609939877583288e-01
7.299999999999999545e-02 6.280175426161650476e-01
7.399999999999999634e-02 6.232484776833641105e-01
7.499999999999999722e-02 6.243588513051457900e-01
7.599999999999999811e-02 6.312466619435856963e-01
7.699999999999999900e-02 6.428082535470773795e-01
7.799999999999999989e-02 6.574250244950234912e-01
7.900000000000000078e-02 6.736107448437923528e-01
8.000000000000000167e-02 6.905151399558721037e-01
8.100000000000000255e-02 7.080426701959423585e-01
8.200000000000000344e-02 7.265340643035231860e-01
8.300000000000000433e-02 7.461831550551559777e-01
8.400000000000000522e-02 7.665093740877270134e-01
8.500000000000000611e-02 7.861964174704395569e-01
8.600000000000000699e-02 8.034338302669298271e-01
8.700000000000000788e-02 8.166379097077168803e-01
8.799999999999999489e-02 8.252162510370274484e-01
8.899999999999999578e-02 8.300046034175753151e-01
8.999999999999999667e-02 8.331806030405167762e-01
9.099999999999999756e-02 8.377384150790262440e-01
9.199999999999999845e-02 8.467942366217098282e-01
9.299999999999999933e-02 8.629507085530994104e-01
9.400000000000000022e-02 8.877402331751516051e-01
9.500000000000000111e-02 9.210244229195020393e-01
9.600000000000000200e-02 9.603475146148632291e-01
9.700000000000000289e-02 1.000570999821618567e+00
9.800000000000000377e-02 1.034333268527996674e+00
9.900000000000000466e-02 1.053654199581392392e+00
1.000000000000000056e-01 1.052348017250617884e+00
1.010000000000000064e-01 1.028249742080487916e+00
1.020000000000000073e-01 9.841428574177768507e-01
1.030000000000000082e-01 9.268760713138066709e-01
1.040000000000000091e-01 8.651005560595511623e-01
1.049999999999999961e-01 8.067153875392839568e-01
1.059999999999999970e-01 7.570974257898550608e-01
1.069999999999999979e-01 7.186297093229935262e-01
1.079999999999999988e-01 6.913612262050362611e-01
1.089999999999999997e-01 6.742079646944233451e-01
1.100000000000000006e-01 6.660531442128072577e-01
1.110000000000000014e-01 6.663196709241249183e-01
1.120000000000000023e-01 6.749053357484179338e-01
1.130000000000000032e-01 6.916602632111701343e-01
1.140000000000000041e-01 7.157577948048530203e-01
1.150000000000000050e-01 7.453114379450542781e-01
1.160000000000000059e-01 7.774309617068876355e-01
1.170000000000000068e-01 8.086833564247061235e-01
1.180000000000000077e-01 8.357621844589245841e-01
1.190000000000000085e-01 8.561451958848698141e-01
1.199999999999999956e-01 8.685904872372764984e-01
1.209999999999999964e-01 8.733818839055145222e-01
1.219999999999999973e-01 8.722425049223958560e-01
1.229999999999999982e-01 8.678573881816949998e-01
1.239999999999999991e-01 8.630645559770263597e-01
1.250000000000000000e-01 8.599627385656425371e-01
1.260000000000000009e-01 8.592983979072342793e-01
1.270000000000000018e-01 8.604049572841151461e-01
1.280000000000000027e-01 8.616988601519310897e-01
1.290000000000000036e-01 8.614677984792586951e-01
1.300000000000000044e-01 8.585941470988953661e-01
1.310000000000000053e-01 8.529670308514563093e-01
1.320000000000000062e-01 8.455179658349143423e-01
1.330000000000000071e-01 8.379224883177430749e-01
1.340000000000000080e-01 8.320277004050555814e-01
1.350000000000000089e-01 8.290989428384677451e-01
1.360000000000000098e-01 8.291047899295921342e-01
1.370000000000000107e-01 8.303982628575475866e-01
1.380000000000000115e-01 8.301147584683311598e-01
1.390000000000000124e-01 8.252940888094176808e-01
1.400000000000000133e-01 8.142872302217565306e-01
1.410000000000000142e-01 7.977446170666228076e-01
1.420000000000000151e-01 7.786388071441509018e-01
1.430000000000000160e-01 7.612872324444305283e-01
1.440000000000000169e-01 7.498722684305858532e-01
1.449999999999999900e-01 7.471536275552909112e-01
1.459999999999999909e-01 7.538411766592668650e-01
1.469999999999999918e-01 7.686675081067995130e-01
1.479999999999999927e-01 7.888974701144612078e-01
1.489999999999999936e-01 8.109959730358597962e-01
1.499999999999999944e-01 8.313379844110944106e-01
1.509999999999999953e-01 8.469558740555709342e-01
1.519999999999999962e-01 8.562566933947848291e-01
1.529999999999999971e-01 8.594870502144893454e-01
1.539999999999999980e-01 8.586619288908428071e-01
1.549999999999999989e-01 8.568242103111480823e-01
1.559999999999999998e-01 8.568221340057389224e-01
1.570000000000000007e-01 8.601096430349438604e-01
1.580000000000000016e-01 8.661806499240829460e-01
1.590000000000000024e-01 8.730130695711578737e-01
1.600000000000000033e-01 8.783793038010755394e-01
1.610000000000000042e-01 8.813527229775496297e-01
1.620000000000000051e-01 8.831664959204176268e-01
1.630000000000000060e-01 8.869436532369872062e-01
1.640000000000000069e-01 8.965233545115559588e-01
1.650000000000000078e-01 9.151780203619502840e-01
1.660000000000000087e-01 9.450236551221673498e-01
1.670000000000000095e-01 9.873341342678122468e-01
1.680000000000000104e-01 1.043190633594487604e+00
1.690000000000000113e-01 1.113522954369448037e+00
1.700000000000000122e-01 1.197985307450026848e+00
1.710000000000000131e-01 1.293071459817027646e+00
1.720000000000000140e-01 1.390743626345614548e+00
1.730000000000000149e-01 1.478915695187163148e+00
1.740000000000000158e-01 1.544205199472480805e+00
1.750000000000000167e-01 1.576001094186708862e+00
1.759999999999999898e-01 1.570005552930319626e+00
1.769999999999999907e-01 1.529593742109644383e+00
1.779999999999999916e-01 1.464443120773384122e+00
1.789999999999999925e-01 1.387190810499563609e+00
1.799999999999999933e-01 1.309651859737043011e+00
1.809999999999999942e-01 1.240072238882406586e+00
1.819999999999999951e-01 1.182183195646573370e+00
1.829999999999999960e-01 1.135918526328519418e+00
1.839999999999999969e-01 1.099006994080760746e+00
1.849999999999999978e-01 1.068521385698551596e+00
1.859999999999999987e-01 1.041820513392466729e+00
1.869999999999999996e-01 1.016862794993818264e+00
1.880000000000000004e-01 9.922309600849462674e-01
1.890000000000000013e-01 9.671981916355494313e-01
1.900000000000000022e-01 9.418917294232382886e-01
1.910000000000000031e-01 9.173526871692796458e-01
1.920000000000000040e-01 8.952700466097891496e-01
1.930000000000000049e-01 8.773799372401079877e-01
1.940000000000000058e-01 8.647778953293897564e-01
1.950000000000000067e-01 8.574860163693286408e-01
1.960000000000000075e-01 8.544855794305400432e-01
1.970000000000000084e-01 8.541738162398245793e-01
1.980000000000000093e-01 8.550012412779899318e-01
1.990000000000000102e-01 8.560000934876120793e-01
2.000000000000000111e-01 8.570143603102831076e-01
2.010000000000000120e-01 8.585984373561584837e-01
2.020000000000000129e-01 8.616736036734430337e-01
2.030000000000000138e-01 8.670796891893274294e-01
2.040000000000000147e-01 8.751527674243467780e-01
2.050000000000000155e-01 8.854434808745168528e-01
2.060000000000000164e-01 8.966862805010508142e-01
2.070000000000000173e-01 9.071075945744531133e-01
2.080000000000000182e-01 9.150668822128826818e-01
2.089999999999999913e-01 9.198513196498243616e-01
2.099999999999999922e-01 9.222770407443626750e-01
2.109999999999999931e-01 9.247225883287450987e-01
2.119999999999999940e-01 9.304123901184363499e-01
2.129999999999999949e-01 9.421223353443054505e-01
2.139999999999999958e-01 9.608203455020140060e-01
2.149999999999999967e-01 9.848870625072867480e-01
2.159999999999999976e-01 1.010378965220382064e+00
2.169999999999999984e-01 1.032344383378890340e+00
2.179999999999999993e-01 1.046679587559838254e+00
2.190000000000000002e-01 1.051690899422247583e+00
2.200000000000000011e-01 1.048616769601220966e+00
2.210000000000000020e-01 1.040857410074869760e+00
2.220000000000000029e-01 1.032306891752363009e+00
2.230000000000000038e-01 1.025616648826630728e+00
2.240000000000000047e-01 1.021195560850176376e+00
2.250000000000000056e-01 1.017316117335413050e+00
2.260000000000000064e-01 1.011142334388623443e+00
2.270000000000000073e-01 1.000140696416513819e+00
2.280000000000000082e-01 9.833057868880212826e-01
2.290000000000000091e-01 9.618277328905101564e-01
2.300000000000000100e-01 9.390686822084233221e-01
2.310000000000000109e-01 9.198958869903193225e-01
2.320000000000000118e-01 9.095430613027800648e-01
2.330000000000000127e-01 9.122751833261607546e-01
2.340000000000000135e-01 9.302102879897911070e-01
2.350000000000000144e-01 9.626566417702608902e-01
2.360000000000000153e-01 1.006207787659745945e+00
2.370000000000000162e-01 1.055603564744273859e+00
2.380000000000000171e-01 1.105087667953635888e+00
2.390000000000000180e-01 1.149798849205772466e+00
2.399999999999999911e-01 1.186731045831015630e+00
2.409999999999999920e-01 1.214995910818760905e+00
2.419999999999999929e-01 1.235414497796628819e+00
2.429999999999999938e-01 1.249708167682650028e+00
2.439999999999999947e-01 1.259658945584386736e+00
2.449999999999999956e-01 1.266555650716974402e+00
2.459999999999999964e-01 1.271075776289714021e+00
2.469999999999999973e-01 1.273540367001489981e+00
2.479999999999999982e-01 1.274307120791132730e+00
2.489999999999999991e-01 1.274024485847857546e+00
2.500000000000000000e-01 1.273589006027820103e+00
2.510000000000000009e-01 1.273859321372518449e+00
2.520000000000000018e-01 1.275342786533879336e+00
2.530000000000000027e-01 1.278075673673742640e+00
2.540000000000000036e-01 1.281771593972147461e+00
2.550000000000000044e-01 1.286129907223807045e+00
2.560000000000000053e-01 1.291109626266748744e+00
2.570000000000000062e-01 1.297033441962651690e+00
2.580000000000000071e-01 1.304519092483232834e+00
2.590000000000000080e-01 1.314313981243843354e+00
2.600000000000000089e-01 1.327073783142259877e+00
2.610000000000000098e-01 1.343052345433795258e+00
2.620000000000000107e-01 1.361695692116577927e+00
2.630000000000000115e-01 1.381294107514055680e+00
2.640000000000000124e-01 1.399002079238955476e+00
2.650000000000000133e-01 1.411482590492888489e+00
2.660000000000000142e-01 1.416111695513337043e+00
2.670000000000000151e-01 1.412269617109281228e+00
2.680000000000000160e-01 1.402038838714227742e+00
2.690000000000000169e-01 1.389812585564675906e+00
2.700000000000000178e-01 1.380824968575787182e+00
2.710000000000000187e-01 1.379170179778602900e+00
2.720000000000000195e-01 1.386164332029286905e+00
2.730000000000000204e-01 1.399755396249048989e+00
2.740000000000000213e-01 1.415193790758482617e+00
2.750000000000000222e-01 1.426621091575443812e+00
2.760000000000000231e-01 1.428906819537820505e+00
2.770000000000000240e-01 1.419081591748663440e+00
2.780000000000000249e-01 1.396984598148914625e+00
2.790000000000000258e-01 1.365069845804908200e+00
2.800000000000000266e-01 1.327559114671568175e+00
2.810000000000000275e-01 1.289265784971071360e+00
2.820000000000000284e-01 1.254469745847469841e+00
2.830000000000000293e-01 1.226190130630849584e+00
2.840000000000000302e-01 1.206039993394881993e+00
2.850000000000000311e-01 1.194578492299591010e+00
2.860000000000000320e-01 1.191837654615537589e+00
2.870000000000000329e-01 1.197654767006130605e+00
2.880000000000000338e-01 1.211626834143511466e+00
2.889999999999999791e-01 1.232785302891165946e+00
2.899999999999999800e-01 1.259269110375566880e+00
2.909999999999999809e-01 1.288253774333256052e+00
2.919999999999999818e-01 1.316234823654595987e+00
2.929999999999999827e-01 1.339600610354951149e+00
2.939999999999999836e-01 1.355341175095162942e+00
2.949999999999999845e-01 1.361703299214098717e+00
2.959999999999999853e-01 1.358568782354179660e+00
2.969999999999999862e-01 1.347333456063306123e+00
2.979999999999999871e-01 1.330201460640864974e+00
2.989999999999999880e-01 1.309117043030731287e+00
2.999999999999999889e-01 1.284871438912691843e+00
3.009999999999999898e-01 1.256957759577814970e+00
3.019999999999999907e-01 1.224357603682713957e+00
3.029999999999999916e-01 1.186833461871942275e+00
3.039999999999999925e-01 1.145914744462429802e+00
3.049999999999999933e-01 1.104917506604756072e+00
3.059999999999999942e-01 1.067933715645790649e+00
3.069999999999999951e-01 1.038342363018197823e+00
3.079999999999999960e-01 1.017633867951214910e+00
3.089999999999999969e-01 1.005108297072707879e+00
3.099999999999999978e-01 9.985121042301088323e-01
3.109999999999999987e-01 9.952173492324531967e-01
3.119999999999999996e-01 9.933359719455625569e-01
3.130000000000000004e-01 9.922655873129507809e-01
3.140000000000000013e-01 9.925071934604238200e-01
3.150000000000000022e-01 9.949940856946986045e-01
3.160000000000000031e-01 1.000403975305615312e+00
3.170000000000000040e-01 1.008857277646997064e+00
3.180000000000000049e-01 1.020083681843654499e+00
3.190000000000000058e-01 1.033787488817416111e+00
3.200000000000000067e-01 1.049808684000542280e+00
3.210000000000000075e-01 1.067859851881007405e+00
3.220000000000000084e-01 1.086988534618797297e+00
3.230000000000000093e-01 1.105198787033036423e+00
3.240000000000000102e-01 1.119644818320412849e+00
3.250000000000000111e-01 1.127473881420242297e+00
3.260000000000000120e-01 1.126955781319566974e+00
3.270000000000000129e-01 1.118285900366366770e+00
3.280000000000000138e-01 1.103570606759966211e+00
3.290000000000000147e-01 1.085944613445516849e+00
3.300000000000000155e-01 1.068261211640640473e+00
3.310000000000000164e-01 1.052026843942883261e+00
3.320000000000000173e-01 1.037081897919475137e+00
3.330000000000000182e-01 1.022092592255506638e+00
3.340000000000000191e-01 1.005512104440499543e+00
3.350000000000000200e-01 9.865229245357672871e-01
3.360000000000000209e-01 9.655936638338163958e-01
3.370000000000000218e-01 9.445074974678823176e-01
3.380000000000000226e-01 9.258948403304164687e-01
3.390000000000000235e-01 9.124106865380171572e-01
3.400000000000000244e-01 9.057965016377867995e-01
3.410000000000000253e-01 9.061624635349113666e-01
3.420000000000000262e-01 9.118273586543753639e-01
3.430000000000000271e-01 9.198721003499985560e-01
3.440000000000000280e-01 9.272352244470705163e-01
3.450000000000000289e-01 9.318782751868481817e-01
3.460000000000000298e-01 9.334707976849045963e-01
3.470000000000000306e-01 9.332623333281879763e-01
3.480000000000000315e-01 9.332151391536513962e-01
3.490000000000000324e-01 9.348417281406655732e-01
3.500000000000000333e-01 9.383228693063861980e-01
3.510000000000000342e-01 9.423137926704970857e-01
3.519999999999999796e-01 9.444867916190278212e-01
3.529999999999999805e-01 9.425075544472688582e-01
3.539999999999999813e-01 9.349742667863344403e-01
3.549999999999999822e-01 9.219225430893200901e-01
3.559999999999999831e-01 9.047466285728681390e-01
3.569999999999999840e-01 8.856640322673035026e-01
3.579999999999999849e-01 8.670210776798163987e-01
3.589999999999999858e-01 8.507392930767549988e-01
3.599999999999999867e-01 8.380678295862732385e-01
3.609999999999999876e-01 8.296276954301131656e-01
3.619999999999999885e-01 8.256071749971148899e-01
3.629999999999999893e-01 8.259447073663515049e-01
3.639999999999999902e-01 8.303989731832780441e-01
3.649999999999999911e-01 8.384971985663877136e-01
3.659999999999999920e-01 8.494203699607523195e-01
3.669999999999999929e-01 8.619141720530756334e-01
3.679999999999999938e-01 8.743160951111192958e-01
3.689999999999999947e-01 8.847610262292512351e-01
3.699999999999999956e-01 8.915544933415824325e-01
3.709999999999999964e-01 8.935935956111081824e-01
3.719999999999999973e-01 8.906349683827329278e-01
3.729999999999999982e-01 8.832429918156564641e-01
3.739999999999999991e-01 8.724202807512561053e-01
3.750000000000000000e-01 8.591284846378834938e-01
3.760000000000000009e-01 8.439920600251787919e-01
3.770000000000000018e-01 8.273566786536687978e-01
3.780000000000000027e-01 8.096254137312655086e-01
3.790000000000000036e-01 7.916078154349053264e-01
3.800000000000000044e-01 7.746311240663682485e-01
3.810000000000000053e-01 7.603538921624323210e-01
3.820000000000000062e-01 7.504240963053939728e-01
3.830000000000000071e-01 7.461788243093757655e-01
3.840000000000000080e-01 7.484763019778519766e-01
3.850000000000000089e-01 7.576102591404929587e-01
3.860000000000000098e-01 7.732216331613890326e-01
3.870000000000000107e-01 7.942178450809367352e-01
3.880000000000000115e-01 8.188292041715239389e-01
3.890000000000000124e-01 8.449399393830401284e-01
3.900000000000000133e-01 8.706850011328511885e-01
3.910000000000000142e-01 8.950956379055733381e-01
3.920000000000000151e-01 9.184684193270549191e-01
3.930000000000000160e-01 9.422279961903752277e-01
3.940000000000000169e-01 9.683086724543913393e-01
3.950000000000000178e-01 9.983238703433912065e-01
3.960000000000000187e-01 1.032863701356905084e+00
3.970000000000000195e-01 1.071137074666655309e+00
3.980000000000000204e-01 1.110981454917991273e+00
