# cos_alpha, density. dx=0.001, size=550
0.000000000000000000e+00 4.681318515385380685e+00
1.000000000000000021e-03 4.588969094851292674e+00
2.000000000000000042e-03 4.332602698424325993e+00
3.000000000000000062e-03 3.966100545186851178e+00
4.000000000000000083e-03 3.556641721248989363e+00
5.000000000000000104e-03 3.163497998108541154e+00
6.000000000000000125e-03 2.824774444301542786e+00
7.000000000000000146e-03 2.555240127604149869e+00
8.000000000000000167e-03 2.352381949486068269e+00
9.000000000000001055e-03 2.205235068443154312e+00
1.000000000000000021e-02 2.101426910260640657e+00
1.099999999999999936e-02 2.030451805002896570e+00
1.200000000000000025e-02 1.983738284504249494e+00
1.300000000000000114e-02 1.953489409663609733e+00
1.400000000000000029e-02 1.932138704951460673e+00
1.499999999999999944e-02 1.912968592501808507e+00
1.600000000000000033e-02 1.891125655868414634e+00
1.700000000000000122e-02 1.864007631443429291e+00
1.800000000000000211e-02 1.830827876355218597e+00
1.899999999999999953e-02 1.792064862186537377e+00
2.000000000000000042e-02 1.749471229554030227e+00
2.100000000000000130e-02 1.706410854122389242e+00
2.199999999999999872e-02 1.667552025143245409e+00
2.299999999999999961e-02 1.637279150574194375e+00
2.400000000000000050e-02 1.617421304307450347e+00
2.500000000000000139e-02 1.605898303821126305e+00
2.600000000000000228e-02 1.597591141255612079e+00
2.699999999999999969e-02 1.587181824080240888e+00
2.800000000000000058e-02 1.572103654371900694e+00
2.900000000000000147e-02 1.553524930757314459e+00
2.999999999999999889e-02 1.534771353176048514e+00
3.099999999999999978e-02 1.518572846007239185e+00
3.200000000000000067e-02 1.505307102520645923e+00
3.300000000000000155e-02 1.493381209433713108e+00
3.400000000000000244e-02 1.481051234402891215e+00
3.500000000000000333e-02 1.467964437905231234e+00
3.600000000000000422e-02 1.455249619615731849e+00
3.699999999999999817e-02 1.444361581794508131e+00
3.799999999999999906e-02 1.435812156906118187e+00
3.899999999999999994e-02 1.428757147113380865e+00
4.000000000000000083e-02 1.421557442431510054e+00
4.100000000000000172e-02 1.412724705889563781e+00
4.200000000000000261e-02 1.401576492114958716e+00
4.300000000000000350e-02 1.388329086819606317e+00
4.399999999999999745e-02 1.373785780256150391e+00
4.499999999999999833e-02 1.358896484381407310e+00
4.599999999999999922e-02 1.344319618805380534e+00
4.700000000000000011e-02 1.330012352639571072e+00
4.800000000000000100e-02 1.314976652724541450e+00
4.900000000000000189e-02 1.297410959831131860e+00
5.000000000000000278e-02 1.275380030971661860e+00
5.100000000000000366e-02 1.247754112299233498e+00
5.200000000000000455e-02 1.214933648239187036e+00
5.299999999999999850e-02 1.179004679142040546e+00
5.399999999999999939e-02 1.143316210244694098e+00
5.500000000000000028e-02 1.111720643165049704e+00
5.600000000000000117e-02 1.087744412606190814e+00
5.700000000000000205e-02 1.073861588345430107e+00
5.800000000000000294e-02 1.070963806101505433e+00
5.900000000000000383e-02 1.078100512068776329e+00
5.999999999999999778e-02 1.092582253162099448e+00
6.099999999999999867e-02 1.110541507455492738e+00
6.199999999999999956e-02 1.127957380564345691e+00
6.300000000000000044e-02 1.141944614120330659e+00
6.400000000000000133e-02 1.151872841903130995e+00
6.500000000000000222e-02 1.159794608058606791e+00
6.600000000000000311e-02 1.169848420980595272e+00
6.700000000000000400e-02 1.186725617864829996e+00
6.800000000000000488e-02 1.213734850226843687e+00
6.900000000000000577e-02 1.251213158207237663e+00
7.000000000000000666e-02 1.295910802736942813e+00
7.100000000000000755e-02 1.341628115700188806e+00
7.200000000000000844e-02 1.380985205049625408e+00
7.299999999999999545e-02 1.407813649074972417e+00
7.399999999999999634e-02 1.419277315469436251e+00
7.499999999999999722e-02 1.416676633291028997e+00
7.599999999999999811e-02 1.404342128963807390e+00
7.699999999999999900e-02 1.387078606110131451e+00
7.799999999999999989e-02 1.367601730233822810e+00
7.900000000000000078e-02 1.345492095559495560e+00
8.000000000000000167e-02 1.318256648855500979e+00
8.100000000000000255e-02 1.283819878828987626e+00
8.200000000000000344e-02 1.242971677518027729e+00
8.300000000000000433e-02 1.200325375047472720e+00
8.400000000000000522e-02 1.163109038017713370e+00
8.500000000000000611e-02 1.138294205284534177e+00
8.600000000000000699e-02 1.129566399924029074e+00
8.700000000000000788e-02 1.135780994834085345e+00
8.799999999999999489e-02 1.151635295262404268e+00
8.899999999999999578e-02 1.169972457885677386e+00
8.999999999999999667e-02 1.184386912831609129e+00
9.099999999999999756e-02 1.191000273720946634e+00
9.199999999999999845e-02 1.188975445885182003e+00
9.299999999999999933e-02 1.179927330733674617e+00
9.400000000000000022e-02 1.166697733140120707e+00
9.500000000000000111e-02 1.152099451776486427e+00
9.600000000000000200e-02 1.138178457085274209e+00
9.700000000000000289e-02 1.126194506608533041e+00
9.800000000000000377e-02 1.117046945999804031e+00
9.900000000000000466e-02 1.111660289176849448e+00
1.000000000000000056e-01 1.111046465445588272e+00
1.010000000000000064e-01 1.116103013419225354e+00
1.020000000000000073e-01 1.127334601575069151e+00
1.030000000000000082e-01 1.144569505536222387e+00
1.040000000000000091e-01 1.166647409962125792e+00
1.049999999999999961e-01 1.191177425974667914e+00
1.059999999999999970e-01 1.214678679405021500e+00
1.069999999999999979e-01 1.233379752352457448e+00
1.079999999999999988e-01 1.244509263149178091e+00
1.089999999999999997e-01 1.247370535468828479e+00
1.100000000000000006e-01 1.243422126085137025e+00
1.110000000000000014e-01 1.235194075671071090e+00
1.120000000000000023e-01 1.224711166483342550e+00
1.130000000000000032e-01 1.212469049338452676e+00
1.140000000000000041e-01 1.197623909771994732e+00
1.150000000000000050e-01 1.179233693327651489e+00
1.160000000000000059e-01 1.157724545726996235e+00
1.170000000000000068e-01 1.135663799059825729e+00
1.180000000000000077e-01 1.117393560981473355e+00
1.190000000000000085e-01 1.107734040711231049e+00
1.199999999999999956e-01 1.110353691303995971e+00
1.209999999999999964e-01 1.126384400360907589e+00
1.219999999999999973e-01 1.153662689514463491e+00
1.229999999999999982e-01 1.186843281187700327e+00
1.239999999999999991e-01 1.218508194676277467e+00
1.250000000000000000e-01 1.241102868811600590e+00
1.260000000000000009e-01 1.249127343724145023e+00
1.270000000000000018e-01 1.240797327904699765e+00
1.280000000000000027e-01 1.218563057042419517e+00
1.290000000000000036e-01 1.188320387082606233e+00
1.300000000000000044e-01 1.157617657395420441e+00
1.310000000000000053e-01 1.133491325829423912e+00
1.320000000000000062e-01 1.120678960682404579e+00
1.330000000000000071e-01 1.120789115494056798e+00
1.340000000000000080e-01 1.132554613702335233e+00
1.350000000000000089e-01 1.152769852867612022e+00
1.360000000000000098e-01 1.177275777016781211e+00
1.370000000000000107e-01 1.201607221790584656e+00
1.380000000000000115e-01 1.221422558821016358e+00
1.390000000000000124e-01 1.233075924628135978e+00
1.400000000000000133e-01 1.234401024519018009e+00
1.410000000000000142e-01 1.225290567413727771e+00
1.420000000000000151e-01 1.207578222504822607e+00
1.430000000000000160e-01 1.184213686933879739e+00
1.440000000000000169e-01 1.158270396538765512e+00
1.449999999999999900e-01 1.132376391200670351e+00
1.459999999999999909e-01 1.108707113313217363e+00
1.469999999999999918e-01 1.089213266652313106e+00
1.479999999999999927e-01 1.075685308438184773e+00
1.489999999999999936e-01 1.069531599683781087e+00
1.499999999999999944e-01 1.071422509020511615e+00
1.509999999999999953e-01 1.080990251252715861e+00
1.519999999999999962e-01 1.096655293222068117e+00
1.529999999999999971e-01 1.115599456451512150e+00
1.539999999999999980e-01 1.133976170123025096e+00
1.549999999999999989e-01 1.147471903904028423e+00
1.559999999999999998e-01 1.152190005919982552e+00
1.570000000000000007e-01 1.145635930898870170e+00
1.580000000000000016e-01 1.127524267221720056e+00
1.590000000000000024e-01 1.100188311742506198e+00
1.600000000000000033e-01 1.068398076170375077e+00
1.610000000000000042e-01 1.038394592120049698e+00
1.620000000000000051e-01 1.016163165440548299e+00
1.630000000000000060e-01 1.005477058164552462e+00
1.640000000000000069e-01 1.006652943531485933e+00
1.650000000000000078e-01 1.016721501954140239e+00
1.660000000000000087e-01 1.030841218998448161e+00
1.670000000000000095e-01 1.044012278072216082e+00
1.680000000000000104e-01 1.052195358048091833e+00
1.690000000000000113e-01 1.052677093369598360e+00
1.700000000000000122e-01 1.044144687142105177e+00
1.710000000000000131e-01 1.026890711871998318e+00
1.720000000000000140e-01 1.003091465351943823e+00
1.730000000000000149e-01 9.767606515515671051e-01
1.740000000000000158e-01 9.530424685322226308e-01
1.750000000000000167e-01 9.368439490746300891e-01
1.759999999999999898e-01 9.312019122219287182e-01
1.769999999999999907e-01 9.360777428594113658e-01
1.779999999999999916e-01 9.482735064168045236e-01
1.789999999999999925e-01 9.626919993723358493e-01
1.799999999999999933e-01 9.743824501566126228e-01
1.809999999999999942e-01 9.802899282546602144e-01
1.819999999999999951e-01 9.798627184729369333e-01
1.829999999999999960e-01 9.745363367070510874e-01
1.839999999999999969e-01 9.668744363698618116e-01
1.849999999999999978e-01 9.601523561441714927e-01
1.859999999999999987e-01 9.584552512999137130e-01
1.869999999999999996e-01 9.666016138257499390e-01
1.880000000000000004e-01 9.891018636076867043e-01
1.890000000000000013e-01 1.028087778691721743e+00
1.900000000000000022e-01 1.081195110511706581e+00
1.910000000000000031e-01 1.140913706884780554e+00
1.920000000000000040e-01 1.196370600947385121e+00
1.930000000000000049e-01 1.237072719259472597e+00
1.940000000000000058e-01 1.256755676424534451e+00
1.950000000000000067e-01 1.255238150080779436e+00
1.960000000000000075e-01 1.237380469248534176e+00
1.970000000000000084e-01 1.210068564676044289e+00
1.980000000000000093e-01 1.179235230321916683e+00
1.990000000000000102e-01 1.148533920438236544e+00
2.000000000000000111e-01 1.119859504947788853e+00
2.010000000000000120e-01 1.094669831344262878e+00
2.020000000000000129e-01 1.074859703263990163e+00
2.030000000000000138e-01 1.062646781915974836e+00
2.040000000000000147e-01 1.059765950216031927e+00
2.050000000000000155e-01 1.066617763041984634e+00
2.060000000000000164e-01 1.081853929165790040e+00
2.070000000000000173e-01 1.102545130765025805e+00
2.080000000000000182e-01 1.124830590417627896e+00
2.089999999999999913e-01 1.144840730872828560e+00
2.099999999999999922e-01 1.159648809949319404e+00
2.109999999999999931e-01 1.167986386754686023e+00
2.119999999999999940e-01 1.170454630553097841e+00
2.129999999999999949e-01 1.169063647839217790e+00
2.139999999999999958e-01 1.166214197029667332e+00
2.149999999999999967e-01 1.163593872502005633e+00
2.159999999999999976e-01 1.161592108622848230e+00
2.169999999999999984e-01 1.159549805180465798e+00
2.179999999999999993e-01 1.156623495434049520e+00
2.190000000000000002e-01 1.152649453413115976e+00
2.200000000000000011e-01 1.148382829197703403e+00
2.210000000000000020e-01 1.144851667119515248e+00
2.220000000000000029e-01 1.142156819226383568e+00
2.230000000000000038e-01 1.138577090675656933e+00
2.240000000000000047e-01 1.130868729837078535e+00
2.250000000000000056e-01 1.115932757976680456e+00
2.260000000000000064e-01 1.092943541706538069e+00
2.270000000000000073e-01 1.064464457868718794e+00
2.280000000000000082e-01 1.035616565019190638e+00
2.290000000000000091e-01 1.011692467019762676e+00
2.300000000000000100e-01 9.956988924639401661e-01
2.310000000000000109e-01 9.873192467866414024e-01
2.320000000000000118e-01 9.837438576976462734e-01
2.330000000000000127e-01 9.815769521679473808e-01
2.340000000000000135e-01 9.785339866967368572e-01
2.350000000000000144e-01 9.741272384820403030e-01
2.360000000000000153e-01 9.694072396505578615e-01
2.370000000000000162e-01 9.663036633635818662e-01
2.380000000000000171e-01 9.669743704368920501e-01
2.390000000000000180e-01 9.732325634123865088e-01
2.399999999999999911e-01 9.860218911901721395e-01
2.409999999999999920e-01 1.005049530527494017e+00
2.419999999999999929e-01 1.028756332193054623e+00
2.429999999999999938e-01 1.054623972075667826e+00
2.439999999999999947e-01 1.079571581787792223e+00
2.449999999999999956e-01 1.100211512539693404e+00
2.459999999999999964e-01 1.113081994157841370e+00
2.469999999999999973e-01 1.115262318949787668e+00
2.479999999999999982e-01 1.105528523856055489e+00
2.489999999999999991e-01 1.085513709596516607e+00
2.500000000000000000e-01 1.059936430532919749e+00
2.510000000000000009e-01 1.035439485844428686e+00
2.520000000000000018e-01 1.018577961110317398e+00
2.530000000000000027e-01 1.014011518217418750e+00
2.540000000000000036e-01 1.023515263900973471e+00
2.550000000000000044e-01 1.045641065588121421e+00
2.560000000000000053e-01 1.075681273156760875e+00
2.570000000000000062e-01 1.106124771302159360e+00
2.580000000000000071e-01 1.128203501735203895e+00
2.590000000000000080e-01 1.134637565213138632e+00
2.600000000000000089e-01 1.122583290812690038e+00
2.610000000000000098e-01 1.095174509979456090e+00
2.620000000000000107e-01 1.060657266043536273e+00
2.630000000000000115e-01 1.029512370610767613e+00
2.640000000000000124e-01 1.010994360155987648e+00
2.650000000000000133e-01 1.010512588165572767e+00
2.660000000000000142e-01 1.028556740632605715e+00
2.670000000000000151e-01 1.061146720317177605e+00
2.680000000000000160e-01 1.101395606043032327e+00
2.690000000000000169e-01 1.141597751965691243e+00
2.700000000000000178e-01 1.175187754830890663e+00
2.710000000000000187e-01 1.198027104474544968e+00
2.720000000000000195e-01 1.208765146286078673e+00
2.730000000000000204e-01 1.208340534604687377e+00
2.740000000000000213e-01 1.198934174803409025e+00
2.750000000000000222e-01 1.182853308436223383e+00
2.760000000000000231e-01 1.161856494698253028e+00
2.770000000000000240e-01 1.137196629919260848e+00
2.780000000000000249e-01 1.110213647293218253e+00
2.790000000000000258e-01 1.082942908019257189e+00
2.800000000000000266e-01 1.058200851331545289e+00
2.810000000000000275e-01 1.038984304081954413e+00
2.820000000000000284e-01 1.027525833338182260e+00
2.830000000000000293e-01 1.024630185858652398e+00
2.840000000000000302e-01 1.029730224095665836e+00
2.850000000000000311e-01 1.041528360072024206e+00
2.860000000000000320e-01 1.058583626879475936e+00
2.870000000000000329e-01 1.079261530264706836e+00
2.880000000000000338e-01 1.101126585302412808e+00
2.889999999999999791e-01 1.120551877300716370e+00
2.899999999999999800e-01 1.133318460708424569e+00
2.909999999999999809e-01 1.136148480418094797e+00
2.919999999999999818e-01 1.128183105074979986e+00
2.929999999999999827e-01 1.111312793233883101e+00
2.939999999999999836e-01 1.089160057480651034e+00
2.949999999999999845e-01 1.065573761919021534e+00
2.959999999999999853e-01 1.043724439610395072e+00
2.969999999999999862e-01 1.026138230784082284e+00
2.979999999999999871e-01 1.015066205796445020e+00
2.989999999999999880e-01 1.012358557070099252e+00
2.999999999999999889e-01 1.018648681210152285e+00
3.009999999999999898e-01 1.032482420753828123e+00
3.019999999999999907e-01 1.050257820717461321e+00
3.029999999999999916e-01 1.067275260383416136e+00
3.039999999999999925e-01 1.079358743007017729e+00
3.049999999999999933e-01 1.084120471559179677e+00
3.059999999999999942e-01 1.081290525601420915e+00
3.069999999999999951e-01 1.072256190864858016e+00
3.079999999999999960e-01 1.059394542349968216e+00
3.089999999999999969e-01 1.045610340970570817e+00
3.099999999999999978e-01 1.034012085336918352e+00
3.109999999999999987e-01 1.027443758356687331e+00
3.119999999999999996e-01 1.027821504333361169e+00
3.130000000000000004e-01 1.035532493191700709e+00
3.140000000000000013e-01 1.049155587327514239e+00
3.150000000000000022e-01 1.065569085145908090e+00
3.160000000000000031e-01 1.080472001411652894e+00
3.170000000000000040e-01 1.089447502213885643e+00
3.180000000000000049e-01 1.089535496127567171e+00
3.190000000000000058e-01 1.080721060591510518e+00
3.200000000000000067e-01 1.066321926138425358e+00
3.210000000000000075e-01 1.051655586401480269e+00
3.220000000000000084e-01 1.041530101489047233e+00
3.230000000000000093e-01 1.038086953878723850e+00
3.240000000000000102e-01 1.040363989862724159e+00
3.250000000000000111e-01 1.045663869969747140e+00
3.260000000000000120e-01 1.051484378602923320e+00
3.270000000000000129e-01 1.056536558576572915e+00
3.280000000000000138e-01 1.060387647962375945e+00
3.290000000000000147e-01 1.062536833298749928e+00
3.300000000000000155e-01 1.062091794430024327e+00
3.310000000000000164e-01 1.058400674673394271e+00
3.320000000000000173e-01 1.051876566311187089e+00
3.330000000000000182e-01 1.043962017062753933e+00
3.340000000000000191e-01 1.036001671704020577e+00
3.350000000000000200e-01 1.027903056111492575e+00
3.360000000000000209e-01 1.017789490725111712e+00
3.370000000000000218e-01 1.003085635267109144e+00
3.380000000000000226e-01 9.823169432183117555e-01
3.390000000000000235e-01 9.563295023948731322e-01
3.400000000000000244e-01 9.280764114485782201e-01
3.410000000000000253e-01 9.011815562006636471e-01
3.420000000000000262e-01 8.783411296221921294e-01
3.430000000000000271e-01 8.606162402477500750e-01
3.440000000000000280e-01 8.478576387511337353e-01
3.450000000000000289e-01 8.395989973409051510e-01
3.460000000000000298e-01 8.355259387260648429e-01
3.470000000000000306e-01 8.352015137101183040e-01
3.480000000000000315e-01 8.374958204910561976e-01
3.490000000000000324e-01 8.404075602919279797e-01
3.500000000000000333e-01 8.415423167407295457e-01
3.510000000000000342e-01 8.389236974448268658e-01
3.519999999999999796e-01 8.316111791613647330e-01
3.529999999999999805e-01 8.198560387192362908e-01
3.539999999999999813e-01 8.048818013132896798e-01
3.549999999999999822e-01 7.884906122530911388e-01
3.559999999999999831e-01 7.725833847786125474e-01
3.569999999999999840e-01 7.585947576626544953e-01
3.579999999999999849e-01 7.469478220184933015e-01
3.589999999999999858e-01 7.368142993805041341e-01
3.599999999999999867e-01 7.264615528385672816e-01
3.609999999999999876e-01 7.141673141941590197e-01
3.619999999999999885e-01 6.992821812550324978e-01
3.629999999999999893e-01 6.828539701133616857e-01
3.639999999999999902e-01 6.674428768170227455e-01
3.649999999999999911e-01 6.561823663197750012e-01
3.659999999999999920e-01 6.514934203780197164e-01
3.669999999999999929e-01 6.539941865646017316e-01
3.679999999999999938e-01 6.620742104258197092e-01
3.689999999999999947e-01 6.723536393784536047e-01
3.699999999999999956e-01 6.808594707081933040e-01
3.709999999999999964e-01 6.843785491524798648e-01
3.719999999999999973e-01 6.813472997910524631e-01
3.729999999999999982e-01 6.719327265616849010e-01
3.739999999999999991e-01 6.574563026543307487e-01
3.750000000000000000e-01 6.396471762271688233e-01
3.760000000000000009e-01 6.201685179704087281e-01
3.770000000000000018e-01 6.005341448391717796e-01
3.780000000000000027e-01 5.822020620633557852e-01
3.790000000000000036e-01 5.665376217901484379e-01
3.800000000000000044e-01 5.545289969106523831e-01
3.810000000000000053e-01 5.464411556516487467e-01
3.820000000000000062e-01 5.417391169748686508e-01
3.830000000000000071e-01 5.394421013343085880e-01
3.840000000000000080e-01 5.387088008859447497e-01
3.850000000000000089e-01 5.392196183377966356e-01
3.860000000000000098e-01 5.410481329909109238e-01
3.870000000000000107e-01 5.441195900195950896e-01
3.880000000000000115e-01 5.476999343813436782e-01
3.890000000000000124e-01 5.503549235798216310e-01
3.900000000000000133e-01 5.504785660848154905e-01
3.910000000000000142e-01 5.470850751664038114e-01
3.920000000000000151e-01 5.403623099545812325e-01
3.930000000000000160e-01 5.315978369457214914e-01
3.940000000000000169e-01 5.224492629462869075e-01
3.950000000000000178e-01 5.139627840444880302e-01
3.960000000000000187e-01 5.059806139778733058e-01
3.970000000000000195e-01 4.973891286264247036e-01
3.980000000000000204e-01 4.870944448604079269e-01
